time,co2_emissions,radiative_forcing,temperature,sea_level_rise,slr_antartic_icesheet,slr_glaciers_small_ice_caps,slr_greeland_icesheet,slr_landwater_storage,slr_thermal_expansion
2010,31.399705321427348,0.40101209999999976,0.0,-0.0138,0.0,-0.0138,0.0,0.0,0.0
2011,32.123644877066,0.6976917394644582,0.07655876955079544,-0.01182311070389584,0.0010739689819021514,-0.013598954877731398,-4.8600000000398325e-5,0.0,0.0007504751919338042
2012,32.84758443270465,0.9494556272768742,0.1510424899923729,-0.009361464430035068,0.0022602123343549163,-0.013295430632830276,-0.00011440284208763529,0.0,0.0017881567105279275
2013,33.5715239883433,1.16059499559151,0.22367243842907586,-0.006608668926398076,0.0034503435210968547,-0.012892385558930446,-0.00018460264485753441,0.0,0.00301797575629305
2014,34.29546354398195,1.3316737832282888,0.29262865303680424,-0.003629213189826487,0.004643012591086015,-0.012392539986833482,-0.0002473700424889813,0.0,0.004367684248409961
2015,35.019403099620604,1.4930446607292833,0.3586777205844313,-0.0004574119098154604,0.005837759199097459,-0.011801099287447455,-0.0002923736593496429,0.0,0.005798301837884179
2016,35.78201957077572,1.6643111465370644,0.4241935258857101,0.002911790825598416,0.00703433984992885,-0.011122280556460142,-0.00031058789272364606,0.0,0.007310319424853354
2017,36.54463604193083,1.8407893691794324,0.4903815432443349,0.006496641898265347,0.008232815410475047,-0.010357168691148362,-0.0002927879450655979,0.0,0.00891378312400426
2018,37.30725251308594,2.018111231362665,0.557454934559536,0.010309815310233655,0.009433355122965281,-0.00950529007696643,-0.00022906546587808663,0.0,0.01061081573011289
2019,38.069868984241054,2.1966485959888207,0.6254882190818518,0.014463182039368631,0.010636092453930712,-0.008565943780323475,-0.00010903679682794376,0.00010194117583607956,0.012400128986753259
2020,38.83248545539615,2.4267474449456303,0.6991705261249187,0.01892228031166533,0.011841870534895937,-0.007538389581847525,7.813619951058115e-5,0.0002248349057892096,0.014315828253317125
2021,39.621303102183596,2.682688028432843,0.7800069228712264,0.023904521451585954,0.013050557642724225,-0.006415750266671409,0.0003494167120230429,0.0005172315227951801,0.016403065840714916
2022,40.41012074897104,2.897837478295304,0.8624712138912621,0.02966542628208537,0.014263844176015339,-0.005189290722958802,0.0007265798002729085,0.0012265974280024343,0.01863769560075349
2023,41.19893839575848,3.084656583254352,0.9431090335130865,0.03540692486892656,0.015483630971087292,-0.003857708166726293,0.001226386753082842,0.0015914139857752803,0.020963201325707437
2024,41.987756042545925,3.2439541525038074,1.0199207514752033,0.04112628399228701,0.01670426613862519,-0.0024243270781694184,0.001860352215824257,0.0016467829136011763,0.023339209802405808
2025,42.77657368933337,3.3740876879618718,1.0913465077882862,0.0472369059730724,0.017925703089434197,-0.0008951282903627324,0.0026351268217448265,0.0018412415550207548,0.025729962797235363
2026,43.58054117132891,3.5025720049251348,1.1587575681795976,0.053556710927616935,0.019150834114618598,0.0007218755752790784,0.0035521456449538746,0.0020098307973655826,0.028122024795399807
2027,44.38450865332445,3.6470591317517993,1.2250134658875997,0.06043227196939737,0.020378337796678636,0.0024204933174500395,0.004613343261639535,0.0024864716906170528,0.030533625903012104
2028,45.188476135319995,3.801102032782775,1.291608426701929,0.06751945024082782,0.021610697515676236,0.004198259487330864,0.005825622275323461,0.0028976905058376596,0.032987180456659604
2029,45.99244361731554,3.959296122550387,1.3589221308197852,0.07496370956217685,0.022845508367643763,0.006054611492028844,0.007199098626339939,0.0033709848323123584,0.03549350624385196
2030,46.796411099311086,4.122384848989361,1.4272251238049616,0.0823482380291794,0.0240838491701012,0.007989422895478457,0.008744993305326076,0.0034714984943080333,0.03805847416396563
2031,47.60571291877599,4.341192113563343,1.5014352523948498,0.09022825876814315,0.025322799457854206,0.010002853237311031,0.01047554302820064,0.0037039378595800114,0.040723125185197266
2032,48.4150147382409,4.587041540089729,1.5829811933421056,0.09871811413207106,0.026566440205378128,0.012101244215418853,0.012417936279240926,0.004095422892406287,0.04353707053962686
2033,49.224316557705805,4.793014345638398,1.666245347023054,0.10780124498062812,0.027815763015015538,0.014292553307595357,0.014606595411890133,0.004608262756927798,0.04647807048919929
2034,50.03361837717071,4.973090633508372,1.7478742375418,0.11687218988135542,0.029070736459191893,0.016577428710613865,0.017060969189225617,0.004670729246601318,0.049492326275722726
2035,50.84292019663562,5.126971905361286,1.8258735808786242,0.12624256961834907,0.030327066894498045,0.018952214311217193,0.01978955456651832,0.004631479146013316,0.05254225470010221
2036,51.64881984026037,5.252806286392948,1.8986641159104454,0.1366488845463616,0.031586935899235,0.021410756218198306,0.022792556740598435,0.005264813921470508,0.055593821766859335
2037,52.45471948388513,5.377931213157255,1.967597504846359,0.1469245063954904,0.03285553593955348,0.023944995131742586,0.026062225486868762,0.005426767400763508,0.05863498243656205
2038,53.260619127509884,5.519755309164695,2.0355049970949097,0.15756330331461554,0.034124537563326784,0.02654864017907991,0.029593675150888288,0.005611416632505594,0.06168503378881497
2039,54.06651877113464,5.671704131876048,2.1038543780156855,0.16863927680382282,0.035397456487104795,0.02921893747424149,0.03339189011804233,0.005863793849094026,0.06476719887534017
2040,54.872418414759395,5.8279140198712005,2.1729696437027126,0.18020400900814398,0.036674863710415506,0.03195491169679282,0.037467564030921,0.006213960380120191,0.06789270918989446
2041,55.66712548732741,5.9871729243874245,2.242901538698224,0.19241100532292746,0.03795718038295004,0.03475593030414449,0.04183289442727034,0.006798780040136765,0.07106622016842581
2042,56.46183255989543,6.199182586009583,2.3182916415314985,0.20491197839093198,0.039245558646287204,0.03762136309914028,0.04650051901622554,0.007218833764286896,0.07432570386499207
2043,57.25653963246344,6.437718399337764,2.400595042317346,0.21804677740098877,0.040537674502919896,0.04055603806618161,0.05150512285583542,0.007728825406770387,0.07771911656928147
2044,58.05124670503146,6.636991089040565,2.4843500197660147,0.2312031925293259,0.041836132124394854,0.04356627639310681,0.05689085838775387,0.007684699406728963,0.08122522621734136
2045,58.84595377759948,6.810238995165138,2.566250389262705,0.24524403136903125,0.04313664816635554,0.04665171510108626,0.06267754487455157,0.007986761639120401,0.08479136158791747
2046,59.62250933324754,6.957245070746789,2.6443286323446302,0.259899401239951,0.04444536365036289,0.04980805073401953,0.06886825609358382,0.008397244535216127,0.08838048622676861
2047,60.3990648888956,7.076160303230853,2.7170269626881605,0.27492794336065407,0.045760333658146135,0.05302873803644286,0.07545434392058059,0.008725431180356144,0.09195909656512834
2048,61.17562044454366,7.194384398853998,2.785719081967293,0.29006879709909594,0.047079766522337474,0.056305559892337924,0.08241656203889569,0.00875124436705167,0.09551566427847319
2049,61.95217600019172,7.329359753236062,2.853256935855072,0.30635329635880765,0.04840174663571872,0.05963203562119232,0.08974097204032372,0.009508527058421208,0.09907001500315167
2050,62.72873155583977,7.473404539509119,2.9210222557472614,0.32299357364990505,0.04973362713133633,0.0630050235269471,0.0974284227768818,0.01018140588895572,0.10264509432578409
2051,63.48091196061904,7.619857164818969,2.9891930085361444,0.34795958047702513,0.05913105315891709,0.06642294721098614,0.10548735948195542,0.010667611178807854,0.10625060944635861
2052,64.2330923653983,7.768985100303511,3.0578483203597964,0.3731212263895323,0.06858641724916137,0.06988439995531859,0.11392723002618688,0.010832781656593005,0.10989039750227245
2053,64.98527277017757,7.97091131495782,3.131708879842394,0.398973671381575,0.07804211492713642,0.07338802852639124,0.12275795668154021,0.011182575263493914,0.11360299598301321
2054,65.73745317495684,8.198726951447195,3.21222315933995,0.4254210743825449,0.08750180126505047,0.07693755018666545,0.13201943126627036,0.0115256381144431,0.11743665355011544
2055,66.4896335797361,8.386838927583602,3.2939325119160077,0.45252278069611024,0.09696497187480924,0.08053799452181944,0.14176290649081036,0.01188684310962077,0.12137006469905043
2056,67.21187153134618,8.54848373923804,3.373536613332133,0.48021546912641105,0.10643209992008895,0.08418829630164819,0.1520059295547398,0.012238532109093394,0.1253506112408407
2057,67.93410948295626,8.683364332218865,3.4490647609797005,0.5087423925329604,0.11590270989020945,0.08788385435021569,0.16274377356583258,0.012870815166540144,0.12934123956016255
2058,68.65634743456634,8.78970955623708,3.518963438211209,0.5370414903731016,0.12537846441550615,0.09161809810225598,0.1739567838727707,0.012779718068139975,0.13330842591442882
2059,69.37858538617643,8.894937459991723,3.584612466776611,0.5660023374265384,0.13485168885665633,0.09538303400631272,0.18561237890563476,0.012914553169825503,0.13724068248810914
2060,70.10082333778651,9.016226199095764,3.6488440267996323,0.5956920496912976,0.144328611917102,0.09917231912722799,0.19768567789434588,0.013347749564830508,0.14115769118779117
2061,70.78814369395056,9.146736901435395,3.713100844388251,0.6256815777317094,0.15380970318305276,0.10298264543266114,0.2101709672700336,0.013635581028861511,0.1450826808171004
2062,71.47546405011461,9.281012109469836,3.7777258555706466,0.656205623925562,0.16338315649323465,0.10681220155309387,0.2230726432483099,0.013910617564058213,0.14902700506686534
2063,72.16278440627866,9.418256023157541,3.8428285693687734,0.6875264273926531,0.1729659712183088,0.1106595127298919,0.23639751446671475,0.014507432655387587,0.15299599632235014
2064,72.85010476244271,9.607577006751429,3.9130422816752626,0.7189253670667961,0.18256041425320269,0.11452319580413112,0.25015315001242744,0.014660518897035575,0.15702808809999935
2065,73.53742511860678,9.822365667248558,3.989773649288505,0.7510404426033699,0.19216242666615757,0.11840627710020032,0.26438318349364387,0.014917571667073741,0.1611709836762943
2066,74.18539130989937,9.997014123612546,4.067541744371062,0.7837810822051893,0.20177789226702314,0.12231286879191905,0.27914387634356785,0.015143337869114922,0.16540310693356428
2067,74.83335750119197,10.144671878814641,4.143023219024571,0.8169438266891067,0.21140683252504178,0.12624166420338342,0.29444932192345075,0.015174457798131454,0.16967155023909924
2068,75.48132369248457,10.265141151637689,4.214239642166051,0.8507211694587853,0.2210479668125922,0.13018825335890152,0.3102864097303284,0.015259511500881827,0.17393902805608139
2069,76.12928988377716,10.356660156406551,4.279634335785929,0.8853796240473253,0.23070247078644468,0.13414654935857906,0.3266244639264819,0.01573424992261625,0.1781718900532033
2070,76.77725607506976,10.446472628135199,4.340568553878159,0.9202146715770115,0.24037172195516776,0.13810929240470687,0.3434180783105747,0.015957157159474596,0.1823584217470876
2071,77.38192371143671,10.551851905689864,4.399867893401318,0.9554026829669943,0.250050329865937,0.14207072528920517,0.3606316462488808,0.016131927231315308,0.18651805433165602
2072,77.98659134780367,10.666424711263216,4.459014812173177,0.9908247505440086,0.2597395976919158,0.14602778559585755,0.37825264592155605,0.016130539866939235,0.19067418146773993
2073,78.59125898417062,10.784877445561623,4.518398587189056,1.026793758909741,0.26943898875861294,0.14997877975260912,0.39628091891375217,0.01625636585895964,0.19483870562580707
2074,79.19592662053758,10.906252550899271,4.578146725082862,1.0633597401282657,0.2791511195445566,0.15392236798433734,0.41471952484883357,0.016549311110332934,0.19901741664020522
2075,79.80059425690453,11.07972822358873,4.642909348078636,1.100419089967663,0.28887678397822214,0.15785732301652125,0.43357253277624785,0.01686336367296308,0.2032490865237086
2076,80.35846719125286,11.27864284506652,4.714101873208975,1.1383223295332094,0.29861665500234735,0.16178623032775433,0.4528856140900164,0.01745210475560254,0.20758172535748892
2077,80.91634012560118,11.437255483768643,4.78623728529059,1.1765325219172063,0.3083750509690385,0.1657125860540956,0.47271824796690964,0.017732734042062787,0.21199390288509978
2078,81.4742130599495,11.568786381365033,4.855993811522554,1.2152620261894926,0.3181489168983742,0.16963522308677298,0.49308091160452605,0.017964167083891404,0.21643280751592794
2079,82.03208599429783,11.673021500567495,4.921394546873688,1.2545524888437085,0.3279397855265628,0.1735503503699848,0.5139531786177889,0.018247892737682035,0.2208612815916899
2080,82.58995892864615,11.749078581964618,4.980965380179288,1.2942166476130845,0.3377474711709503,0.17745279878459422,0.5352952302765512,0.01847474578712549,0.22524640159386325
2081,83.09794788602198,11.825270260449193,5.036235270702212,1.3343234081477684,0.3475697121005419,0.18133652802449385,0.5570521653205214,0.01878656963027617,0.22957843307193507
2082,83.60593684339781,11.917959035924284,5.090074757330872,1.3745153235948686,0.35740633446034287,0.18519695555391527,0.5791824880496375,0.018850917789725877,0.23387862774124732
2083,84.11392580077364,12.019693415958436,5.143885880091743,1.4154968800159315,0.36725478645882514,0.18903184174349175,0.6016714875995115,0.019368129420281436,0.2381706347938216
2084,84.62191475814947,12.12504446370511,5.1979821400876745,1.456603226274034,0.3771204169017134,0.19284005291066086,0.6245176743767589,0.01965926895870586,0.24246581312619506
2085,85.1299037155253,12.233109873117108,5.252447059851078,1.498385121674253,0.3869989362304532,0.19662070433543205,0.647722471653478,0.02027353233573035,0.24676947711915934
2086,85.5852846672551,12.393049022063202,5.311901099248264,1.5402436441933696,0.39689472200853204,0.20037298156400002,0.6712880226106437,0.020567874464683646,0.25112004354551015
2087,86.04066561898489,12.578093803555747,5.37772923675021,1.5826637785737883,0.4068053054681826,0.20409923109895814,0.695261797891745,0.020932291930478304,0.25556515218442427
2088,86.49604657071468,12.722571710354291,5.444428053115989,1.6255658580798646,0.416736437947553,0.20780250916174764,0.7197054932334401,0.021238373550066424,0.2600830441870574
2089,86.95142752244448,12.839698606579924,5.508664552232465,1.6689403116574026,0.4266883836826153,0.2114819690086217,0.7446266130529668,0.0215226719826444,0.2646206739305543
2090,87.40680847417427,12.928387376544237,5.568372624952567,1.7126989950503901,0.43666090332743746,0.21513460197378068,0.7699990190577202,0.021764400895308237,0.26914006979614363
2091,87.80718068223693,12.985987194743279,5.621841193121013,1.7568042968397852,0.44665248682191183,0.21875624427142698,0.7957750954406695,0.022014694951844,0.27360577535393277
2092,88.2075528902996,13.040691469513579,5.670402042469232,1.8010834243828464,0.45666132194559106,0.22234192236436331,0.8218891671823014,0.022186443001858812,0.27800456988873196
2093,88.60792509836226,13.11060458863548,5.716949643594911,1.8457758142336134,0.466684941524964,0.2258878074107011,0.8482886439951196,0.022558650810856992,0.28235577049197136
2094,89.00829730642492,13.188935004994804,5.762982222169043,1.890723503654751,0.47672469176260335,0.22939206428192827,0.8749503493066619,0.022973486086692675,0.2866829122168648
2095,89.40866951448761,13.27014634069452,5.808870197161633,1.9358554861389095,0.4867795795613783,0.23285385815908682,0.9018664020229119,0.023358086703164752,0.2909975596923675
2096,89.75190876272302,13.353358556104682,5.854731773545371,1.9813410642641134,0.4968493466349485,0.23627261752949696,0.9290326719501127,0.02388134486726805,0.29530508328228733
2097,90.09514801095843,13.487691299970386,5.905206053187966,2.026914989164697,0.5069354866434536,0.23964787036358792,0.9564461902307011,0.024241569434061996,0.29964387249289215
2098,90.43838725919383,13.64647076529561,5.961698180070318,2.0726878290212176,0.5170381009232727,0.24298172626801764,0.9841519736398396,0.024454497458101385,0.3040615307319865
2099,90.78162650742924,13.76403700327691,6.018720724435996,2.1188007252172554,0.5271605867310151,0.24627686742753302,1.0122096554872542,0.024617320652051616,0.3085362949194016
2100,91.12486575566464,13.852946239722714,6.072890663809088,2.165446807149225,0.5373046226245596,0.24953283535081638,1.0406216602344287,0.024973064870169426,0.31301462406925074
2101,91.4090672223656,13.912309372789712,6.122116972229254,2.212259642431668,0.5474709629558985,0.252747432827343,1.0693548241238382,0.025228642973435078,0.31745777955115273
2102,91.69326868906654,13.941132587508765,6.164827889523971,2.2591179971460122,0.5576554862982342,0.2559175665833195,1.09835383236865,0.02536021766338616,0.3218308942324225
2103,91.97747015576749,13.967402509838356,6.202453036322822,2.306244910603531,0.5678550533266555,0.2590396168105705,1.1275468140657239,0.025681236173244786,0.3261221902273367
2104,92.26167162246844,14.008302383995682,6.237863561107479,2.353359678030427,0.5780694324100447,0.26211096857502525,1.1568772619195817,0.025950575380377983,0.3303514397453974
2105,92.5458730891694,14.057246771844584,6.272549751238296,2.400597400365475,0.5882959228343311,0.2651306077287473,1.1863193045580394,0.026309478239149177,0.33454208700520777
2106,92.7699078912846,14.108694986047857,6.3068821113320706,2.447783158930275,0.5985353649586552,0.2680983228306331,1.2158629658307145,0.026580765354001407,0.33870573995627046
2107,92.9939426933998,14.161723236497016,6.34097584461656,2.49508888409656,0.6087865456549961,0.2710141178258374,1.245502239507231,0.02693821060865173,0.34284777049984366
2108,93.217977495515,14.265521747047279,6.379474668632548,2.5425272739171274,0.6190507588729479,0.2738780789236113,1.2752323669169616,0.027359483007577314,0.34700658619602937
2109,93.4420122976302,14.393409794594982,6.423787816510989,2.59049093488048,0.6293302101409325,0.2766923197666767,1.3050973960914867,0.028141164742892803,0.3512298441384914
2110,93.66604709974538,14.479724526722206,6.468430637192757,2.637955878897836,0.6396305264538582,0.2794593849692125,1.335155770582026,0.02821437953419991,0.35549581735853925
2111,93.82890097728404,14.537715631716397,6.510086405211803,2.685462198062161,0.6499449007374075,0.2821793523214863,1.3654077464267624,0.028178722176898215,0.35975147639960675
2112,93.99175485482269,14.567163574534751,6.5467811106042575,2.7333722947440116,0.6602760896517899,0.2848509796583738,1.395818580576817,0.028467187069607477,0.36395945778742356
2113,94.15460873236134,14.566325615362329,6.576962796879791,2.7815387392089908,0.670624630774199,0.28747239176026046,1.4263329870634758,0.029022709886399572,0.3680860197246562
2114,94.31746260989999,14.562644046532526,6.60201492257042,2.8294981159254267,0.680986626453191,0.29004133174619606,1.456879946848602,0.029470713608127135,0.37211949726931076
2115,94.48031648743861,14.57356721889248,6.62479748321612,2.8773158207328104,0.6913564822824546,0.29255632021818784,1.4874039499475584,0.02991947000989996,0.37607959827470944
2116,94.58111089027638,14.592496854851841,6.646798274121759,2.9248576181826125,0.7017336554621878,0.295017117369943,1.5178803065577116,0.030236641464554462,0.3799898973282161
2117,94.68190529311414,14.613855905226172,6.668383317682453,2.972042517708588,0.7121168806747242,0.29742409855407054,1.5483002696224801,0.030339165896426584,0.3838621029608868
2118,94.7826996959519,14.636761837675087,6.689668739306956,3.0189616666102363,0.7225054347011411,0.2997777966643669,1.5786590534775442,0.030317685620112736,0.3877016961470713
2119,94.88349409878967,14.710396158072514,6.71529924088186,3.0658904376901894,0.7328998685214678,0.30207880051464825,1.6089531632651184,0.030411390021557985,0.3915472153673971
2120,94.98428850162743,14.808064934131849,6.746683800754242,3.113107589663069,0.7433043507345747,0.3043292334076008,1.6392270668333966,0.03080050862631302,0.39544643006118324
